%time(s),x1,x2,x3,x4,x5,u1,u2,y1,y2,y3,y4
0.0000000e+00,0.0000000e+00,0.0000000e+00,0.0000000e+00,0.0000000e+00,0.0000000e+00,1.2000000e+01,0.0000000e+00,0.0000000e+00,0.0000000e+00,0.0000000e+00,0.0000000e+00
1.0000000e-03,4.0000000e+00,0.0000000e+00,0.0000000e+00,0.0000000e+00,0.0000000e+00,1.2000000e+01,0.0000000e+00,0.0000000e+00,0.0000000e+00,0.0000000e+00,0.0000000e+00
2.0000001e-03,7.8120003e+00,2.2960001e-01,0.0000000e+00,0.0000000e+00,0.0000000e+00,1.2000000e+01,0.0000000e+00,9.1840006e-02,0.0000000e+00,1.0000000e+01,6.0962510e-01
3.0000000e-03,1.1444397e+01,3.5657516e-01,2.2960002e-04,2.2105009e-03,0.0000000e+00,1.2000000e+01,0.0000000e+00,1.4263007e-01,6.9078147e-02,1.0647639e+00,6.3531446e-01
4.0000002e-03,1.4905828e+01,6.7850018e-01,5.8617519e-04,4.5141513e-03,2.2105010e-06,1.2000000e+01,0.0000000e+00,2.7140006e-01,1.4106722e-01,9.2390603e-01,6.3969213e-01
5.0000004e-03,1.8203957e+01,1.1967905e+00,1.2646754e-03,6.8336753e-03,6.7246524e-06,1.2000000e+01,0.0000000e+00,4.7871619e-01,2.1355234e-01,1.2416809e+00,6.3121855e-01
6.0000005e-03,2.1346081e+01,1.9088404e+00,2.4614660e-03,9.1224741e-03,1.3558329e-05,1.2000000e+01,0.0000000e+00,7.6353616e-01,2.8507730e-01,1.6783478e+00,6.2479967e-01
7.0000007e-03,2.4339163e+01,2.8046045e+00,4.3703066e-03,1.1387998e-02,2.2680804e-05,1.2000000e+01,0.0000000e+00,1.1218418e+00,3.5587493e-01,2.1523485e+00,6.2077957e-01
8.0000004e-03,2.7189856e+01,3.8742554e+00,7.1749110e-03,1.3638945e-02,3.4068802e-05,1.2000000e+01,0.0000000e+00,1.5497022e+00,4.2621702e-01,2.6359460e+00,6.1816937e-01
9.0000005e-03,2.9904520e+01,5.1088700e+00,1.1049166e-02,1.5880428e-02,4.7707748e-05,1.2000000e+01,0.0000000e+00,2.0435481e+00,4.9626336e-01,3.1178703e+00,6.1637408e-01
1.0000001e-02,3.2489231e+01,6.5002041e+00,1.6158037e-02,1.8115401e-02,6.3588173e-05,1.2000000e+01,0.0000000e+00,2.6000817e+00,5.6610626e-01,3.5929215e+00,6.1507607e-01
1.1000001e-02,3.4949799e+01,8.0405293e+00,2.2658242e-02,2.0345667e-02,8.1703576e-05,1.2000000e+01,0.0000000e+00,3.2162118e+00,6.3580209e-01,4.0585113e+00,6.1409944e-01
1.2000001e-02,3.7291775e+01,9.7225447e+00,3.0698773e-02,2.2572393e-02,1.0204924e-04,1.2000000e+01,0.0000000e+00,3.8890178e+00,7.0538723e-01,4.5133090e+00,6.1334032e-01
1.3000001e-02,3.9520458e+01,1.1539324e+01,4.0421318e-02,2.4796365e-02,1.2462164e-04,1.2000000e+01,0.0000000e+00,4.6157298e+00,7.7488637e-01,4.9566541e+00,6.1273408e-01
1.4000001e-02,4.1640919e+01,1.3484277e+01,5.1960643e-02,2.7018139e-02,1.4941800e-04,1.2000000e+01,0.0000000e+00,5.3937106e+00,8.4431678e-01,5.3882542e+00,6.1223984e-01
1.5000002e-02,4.3657997e+01,1.5551127e+01,6.5444924e-02,2.9238122e-02,1.7643615e-04,1.2000000e+01,0.0000000e+00,6.2204509e+00,9.1369128e-01,5.8080444e+00,6.1182964e-01
1.6000001e-02,4.5576317e+01,1.7733892e+01,8.0996051e-02,3.1456616e-02,2.0567427e-04,1.2000000e+01,0.0000000e+00,7.0935569e+00,9.8301917e-01,6.2160916e+00,6.1148548e-01
1.7000001e-02,4.7400299e+01,2.0026863e+01,9.8729946e-02,3.3673864e-02,2.3713088e-04,1.2000000e+01,0.0000000e+00,8.0107450e+00,1.0523082e+00,6.6125460e+00,6.1118877e-01
1.8000001e-02,4.9134167e+01,2.2424597e+01,1.1875681e-01,3.5890035e-02,2.7080474e-04,1.2000000e+01,0.0000000e+00,8.9698391e+00,1.1215636e+00,6.9976201e+00,6.1093402e-01
1.9000001e-02,5.0781956e+01,2.4921894e+01,1.4118141e-01,3.8105283e-02,3.0669477e-04,1.2000000e+01,0.0000000e+00,9.9687576e+00,1.1907901e+00,7.3715501e+00,6.1071312e-01
2.0000001e-02,5.2347519e+01,2.7513790e+01,1.6610330e-01,4.0319730e-02,3.4480006e-04,1.2000000e+01,0.0000000e+00,1.1005516e+01,1.2599915e+00,7.7345948e+00,6.1051995e-01
2.1000002e-02,5.3834541e+01,3.0195549e+01,1.9361709e-01,4.2533476e-02,3.8511978e-04,1.2000000e+01,0.0000000e+00,1.2078219e+01,1.3291711e+00,8.0870314e+00,6.1034656e-01
2.2000002e-02,5.5246544e+01,3.2962646e+01,2.2381264e-01,4.4746593e-02,4.2765326e-04,1.2000000e+01,0.0000000e+00,1.3185059e+01,1.3983309e+00,8.4291410e+00,6.1019289e-01
2.3000002e-02,5.6586887e+01,3.5810764e+01,2.5677529e-01,4.6959154e-02,4.7239984e-04,1.2000000e+01,0.0000000e+00,1.4324306e+01,1.4674735e+00,8.7612019e+00,6.1005574e-01
2.4000002e-02,5.7858788e+01,3.8735779e+01,2.9258606e-01,4.9171217e-02,5.1935902e-04,1.2000000e+01,0.0000000e+00,1.5494311e+01,1.5366005e+00,9.0835009e+00,6.0993272e-01
2.5000002e-02,5.9065311e+01,4.1733749e+01,3.3132184e-01,5.1382832e-02,5.6853023e-04,1.2000000e+01,0.0000000e+00,1.6693501e+01,1.6057135e+00,9.3963137e+00,6.0982084e-01
2.6000002e-02,6.0209393e+01,4.4800915e+01,3.7305558e-01,5.3594042e-02,6.1991304e-04,1.2000000e+01,0.0000000e+00,1.7920366e+01,1.6748137e+00,9.6999159e+00,6.0972017e-01
2.7000003e-02,6.1293831e+01,4.7933681e+01,4.1785648e-01,5.5804886e-02,6.7350711e-04,1.2000000e+01,0.0000000e+00,1.9173473e+01,1.7439026e+00,9.9945784e+00,6.0962510e-01
2.8000003e-02,6.2321308e+01,5.1128620e+01,4.6579015e-01,5.8015388e-02,7.2931201e-04,1.2000000e+01,0.0000000e+00,2.0451448e+01,1.8129808e+00,1.0000000e+01,6.0962510e-01
2.9000003e-02,6.3294380e+01,5.4382408e+01,5.1691878e-01,6.0225889e-02,7.8732742e-04,1.2000000e+01,0.0000000e+00,2.1752964e+01,1.8820590e+00,1.0000000e+01,6.0962510e-01
3.0000003e-02,6.4215492e+01,5.7691921e+01,5.7130116e-01,6.2436391e-02,8.4755331e-04,1.2000000e+01,0.0000000e+00,2.3076769e+01,1.9511371e+00,1.0000000e+01,6.0962510e-01
3.1000003e-02,6.5086983e+01,6.1054176e+01,6.2899309e-01,6.4646892e-02,9.0998970e-04,1.2000000e+01,0.0000000e+00,2.4421671e+01,2.0202153e+00,1.0000000e+01,6.0962510e-01
3.2000002e-02,6.5911079e+01,6.4466324e+01,6.9004726e-01,6.6857390e-02,9.7463658e-04,1.2000000e+01,0.0000000e+00,2.5786530e+01,2.0892932e+00,1.0000000e+01,6.0962510e-01
3.3000000e-02,6.6689911e+01,6.7925636e+01,7.5451362e-01,6.9067888e-02,1.0414940e-03,1.2000000e+01,0.0000000e+00,2.7170256e+01,2.1583714e+00,1.0000000e+01,6.0962510e-01
3.3999998e-02,6.7425522e+01,7.1429520e+01,8.2243925e-01,7.1278386e-02,1.1105619e-03,1.2000000e+01,0.0000000e+00,2.8571808e+01,2.2274494e+00,1.0000000e+01,6.0962510e-01
3.4999996e-02,6.8119850e+01,7.4975487e+01,8.9386880e-01,7.3488884e-02,1.1818403e-03,1.2000000e+01,0.0000000e+00,2.9990194e+01,2.2965276e+00,1.0000000e+01,6.0962510e-01
3.5999995e-02,6.8774765e+01,7.8561165e+01,9.6884429e-01,7.5699382e-02,1.2553292e-03,1.2000000e+01,0.0000000e+00,3.1424467e+01,2.3656056e+00,1.0000000e+01,6.0962510e-01
3.6999993e-02,6.9392036e+01,8.2184296e+01,1.0474055e+00,7.7909879e-02,1.3310286e-03,1.2000000e+01,0.0000000e+00,3.2873718e+01,2.4346836e+00,1.0000000e+01,6.0962510e-01
3.7999991e-02,6.9973366e+01,8.5842712e+01,1.1295898e+00,8.0120377e-02,1.4089386e-03,1.2000000e+01,0.0000000e+00,3.4337086e+01,2.5037618e+00,1.0000000e+01,6.0962510e-01
3.8999990e-02,7.0520370e+01,8.9534355e+01,1.2154325e+00,8.2330875e-02,1.4890590e-03,1.2000000e+01,0.0000000e+00,3.5813744e+01,2.5728397e+00,1.0000000e+01,6.0962510e-01
3.9999988e-02,7.1034607e+01,9.3257248e+01,1.3049669e+00,8.4541373e-02,1.5713898e-03,1.2000000e+01,0.0000000e+00,3.7302898e+01,2.6419177e+00,1.0000000e+01,6.0962510e-01
4.0999986e-02,7.1517548e+01,9.7009506e+01,1.3982242e+00,8.6751871e-02,1.6559312e-03,1.2000000e+01,0.0000000e+00,3.8803802e+01,2.7109959e+00,1.0000000e+01,6.0962510e-01
4.1999985e-02,7.1970612e+01,1.0078934e+02,1.4952338e+00,8.8962369e-02,1.7426831e-03,1.2000000e+01,0.0000000e+00,4.0315735e+01,2.7800739e+00,1.0000000e+01,6.0962510e-01
4.2999983e-02,7.2395149e+01,1.0459502e+02,1.5960231e+00,9.1172867e-02,1.8316455e-03,1.2000000e+01,0.0000000e+00,4.1838009e+01,2.8491518e+00,1.0000000e+01,6.0962510e-01
4.3999981e-02,7.2792450e+01,1.0842493e+02,1.7006181e+00,9.3383364e-02,1.9228184e-03,1.2000000e+01,0.0000000e+00,4.3369972e+01,2.9182301e+00,1.0000000e+01,6.0962510e-01
4.4999979e-02,7.3163750e+01,1.1227748e+02,1.8090430e+00,9.5593862e-02,2.0162016e-03,1.2000000e+01,0.0000000e+00,4.4910992e+01,2.9873080e+00,1.0000000e+01,6.0962510e-01
4.5999978e-02,7.3510231e+01,1.1615120e+02,1.9213206e+00,9.7804360e-02,2.1117956e-03,1.2000000e+01,0.0000000e+00,4.6460480e+01,3.0563860e+00,1.0000000e+01,6.0962510e-01
4.6999976e-02,7.3833015e+01,1.2004465e+02,2.0374718e+00,1.0001486e-01,2.2096001e-03,1.2000000e+01,0.0000000e+00,4.8017864e+01,3.1254642e+00,1.0000000e+01,6.0962510e-01
4.7999974e-02,7.4133179e+01,1.2395648e+02,2.1575165e+00,1.0222536e-01,2.3096150e-03,1.2000000e+01,0.0000000e+00,4.9582592e+01,3.1945422e+00,1.0000000e+01,6.0962510e-01
4.8999973e-02,7.4411751e+01,1.2788538e+02,2.2814729e+00,1.0443585e-01,2.4118405e-03,1.2000000e+01,0.0000000e+00,5.1154156e+01,3.2636204e+00,1.0000000e+01,6.0962510e-01
4.9999971e-02,7.4669708e+01,1.3183012e+02,2.4093583e+00,1.0664635e-01,2.5162764e-03,1.2000000e+01,0.0000000e+00,5.2732052e+01,3.3326983e+00,1.0000000e+01,6.0962510e-01
5.0999969e-02,7.4907997e+01,1.3578951e+02,2.5411885e+00,1.0885685e-01,2.6229229e-03,1.2000000e+01,0.0000000e+00,5.4315804e+01,3.4017763e+00,1.0000000e+01,6.0962510e-01
5.1999968e-02,7.5127510e+01,1.3976241e+02,2.6769781e+00,1.1106735e-01,2.7317798e-03,1.2000000e+01,0.0000000e+00,5.5904964e+01,3.4708545e+00,1.0000000e+01,6.0962510e-01
5.2999966e-02,7.5329102e+01,1.4374776e+02,2.8167405e+00,1.1327785e-01,2.8428473e-03,1.2000000e+01,0.0000000e+00,5.7499104e+01,3.5399325e+00,1.0000000e+01,6.0962510e-01
5.3999964e-02,7.5513596e+01,1.4774452e+02,2.9604883e+00,1.1548834e-01,2.9561252e-03,1.2000000e+01,0.0000000e+00,5.9097809e+01,3.6090105e+00,1.0000000e+01,6.0962510e-01
5.4999962e-02,7.5681770e+01,1.5175171e+02,3.1082330e+00,1.1769884e-01,3.0716136e-03,1.2000000e+01,0.0000000e+00,6.0700684e+01,3.6780887e+00,1.0000000e+01,6.0962510e-01
5.5999961e-02,7.5834373e+01,1.5576839e+02,3.2599847e+00,1.1990934e-01,3.1893125e-03,1.2000000e+01,0.0000000e+00,6.2307354e+01,3.7471666e+00,1.0000000e+01,6.0962510e-01
5.6999959e-02,7.5972122e+01,1.5979367e+02,3.4157531e+00,1.2211984e-01,3.3092219e-03,1.2000000e+01,0.0000000e+00,6.3917469e+01,3.8162446e+00,1.0000000e+01,6.0962510e-01
5.7999957e-02,7.6095695e+01,1.6382671e+02,3.5755467e+00,1.2433033e-01,3.4313418e-03,1.2000000e+01,0.0000000e+00,6.5530685e+01,3.8853228e+00,1.0000000e+01,6.0962510e-01
5.8999956e-02,7.6205742e+01,1.6786667e+02,3.7393734e+00,1.2654084e-01,3.5556722e-03,1.2000000e+01,0.0000000e+00,6.7146667e+01,3.9544010e+00,1.0000000e+01,6.0962510e-01
5.9999954e-02,7.6302887e+01,1.7191280e+02,3.9072402e+00,1.2875134e-01,3.6822131e-03,1.2000000e+01,0.0000000e+00,6.8765121e+01,4.0234790e+00,1.0000000e+01,6.0962510e-01
6.0999952e-02,7.6387726e+01,1.7596432e+02,4.0791531e+00,1.3096184e-01,3.8109645e-03,1.2000000e+01,0.0000000e+00,7.0385735e+01,4.0925570e+00,1.0000000e+01,6.0962510e-01
6.1999951e-02,7.6460823e+01,1.8002057e+02,4.2551174e+00,1.3317233e-01,3.9419262e-03,1.2000000e+01,0.0000000e+00,7.2008232e+01,4.1616354e+00,1.0000000e+01,6.0962510e-01
6.2999949e-02,7.6522728e+01,1.8408084e+02,4.4351377e+00,1.3538283e-01,4.0750983e-03,1.2000000e+01,0.0000000e+00,7.3632339e+01,4.2307134e+00,1.0000000e+01,6.0962510e-01
6.3999951e-02,7.6573952e+01,1.8814452e+02,4.6192188e+00,1.3759333e-01,4.2104810e-03,1.2000000e+01,0.0000000e+00,7.5257805e+01,4.2997913e+00,1.0000000e+01,6.0962510e-01
6.4999953e-02,7.6614990e+01,1.9221097e+02,4.8073635e+00,1.3980383e-01,4.3480741e-03,1.2000000e+01,0.0000000e+00,7.6884392e+01,4.3688693e+00,1.0000000e+01,6.0962510e-01
6.5999955e-02,7.6646324e+01,1.9627962e+02,4.9995747e+00,1.4201432e-01,4.4878777e-03,1.2000000e+01,0.0000000e+00,7.8511848e+01,4.4379473e+00,1.0000000e+01,6.0962510e-01
6.6999957e-02,7.6668396e+01,2.0034990e+02,5.1958542e+00,1.4422482e-01,4.6298918e-03,1.2000000e+01,0.0000000e+00,8.0139961e+01,4.5070257e+00,1.0000000e+01,6.0962510e-01
6.7999959e-02,7.6681648e+01,2.0442128e+02,5.3962040e+00,1.4643532e-01,4.7741164e-03,1.2000000e+01,0.0000000e+00,8.1768517e+01,4.5761037e+00,1.0000000e+01,6.0962510e-01
6.8999961e-02,7.6686485e+01,2.0849327e+02,5.6006255e+00,1.4864582e-01,4.9205516e-03,1.2000000e+01,0.0000000e+00,8.3397308e+01,4.6451817e+00,1.0000000e+01,6.0962510e-01
6.9999963e-02,7.6683304e+01,2.1256537e+02,5.8091187e+00,1.5085632e-01,5.0691972e-03,1.2000000e+01,0.0000000e+00,8.5026146e+01,4.7142596e+00,1.0000000e+01,6.0962510e-01
7.0999965e-02,7.6672478e+01,2.1663713e+02,6.0216842e+00,1.5306681e-01,5.2200537e-03,1.2000000e+01,0.0000000e+00,8.6654854e+01,4.7833376e+00,1.0000000e+01,6.0962510e-01
7.1999967e-02,7.6654373e+01,2.2070810e+02,6.2383213e+00,1.5527731e-01,5.3731203e-03,1.2000000e+01,0.0000000e+00,8.8283241e+01,4.8524156e+00,1.0000000e+01,6.0962510e-01
7.2999969e-02,7.6629326e+01,2.2477788e+02,6.4590292e+00,1.5748781e-01,5.5283979e-03,1.2000000e+01,0.0000000e+00,8.9911156e+01,4.9214940e+00,1.0000000e+01,6.0962510e-01
7.3999971e-02,7.6597672e+01,2.2884605e+02,6.6838069e+00,1.5969831e-01,5.6858854e-03,1.2000000e+01,0.0000000e+00,9.1538422e+01,4.9905720e+00,1.0000000e+01,6.0962510e-01
7.4999973e-02,7.6559723e+01,2.3291225e+02,6.9126530e+00,1.6190881e-01,5.8455840e-03,1.2000000e+01,0.0000000e+00,9.3164902e+01,5.0596499e+00,1.0000000e+01,6.0962510e-01
7.5999975e-02,7.6515778e+01,2.3697610e+02,7.1455650e+00,1.6411930e-01,6.0074930e-03,1.2000000e+01,0.0000000e+00,9.4790443e+01,5.1287279e+00,1.0000000e+01,6.0962510e-01
7.6999977e-02,7.6466118e+01,2.4103728e+02,7.3825412e+00,1.6632980e-01,6.1716125e-03,1.2000000e+01,0.0000000e+00,9.6414909e+01,5.1978059e+00,1.0000000e+01,6.0962510e-01
7.7999979e-02,7.6411026e+01,2.4509544e+02,7.6235785e+00,1.6854030e-01,6.3379426e-03,1.2000000e+01,0.0000000e+00,9.8038177e+01,5.2668843e+00,1.0000000e+01,6.0962510e-01
7.8999981e-02,7.6350761e+01,2.4915028e+02,7.8686738e+00,1.7075080e-01,6.5064831e-03,1.2000000e+01,0.0000000e+00,9.9660118e+01,5.3359623e+00,1.0000000e+01,6.0962510e-01
7.9999983e-02,7.6285568e+01,2.5320151e+02,8.1178246e+00,1.7296129e-01,6.6772341e-03,1.2000000e+01,0.0000000e+00,1.0128060e+02,5.4050403e+00,1.0000000e+01,6.0962510e-01
8.0999985e-02,7.6215691e+01,2.5724881e+02,8.3710260e+00,1.7517179e-01,6.8501956e-03,1.2000000e+01,0.0000000e+00,1.0289953e+02,5.4741182e+00,1.0000000e+01,6.0962510e-01
8.1999987e-02,7.6141350e+01,2.6129196e+02,8.6282749e+00,1.7738229e-01,7.0253676e-03,1.2000000e+01,0.0000000e+00,1.0451678e+02,5.5431962e+00,1.0000000e+01,6.0962510e-01
8.2999989e-02,7.6062767e+01,2.6533069e+02,8.8895664e+00,1.7959279e-01,7.2027501e-03,1.2000000e+01,0.0000000e+00,1.0613228e+02,5.6122742e+00,1.0000000e+01,6.0962510e-01
8.3999991e-02,7.5980148e+01,2.6936475e+02,9.1548967e+00,1.8180329e-01,7.3823431e-03,1.2000000e+01,0.0000000e+00,1.0774590e+02,5.6813526e+00,1.0000000e+01,6.0962510e-01
8.4999993e-02,7.5893700e+01,2.7339389e+02,9.4242611e+00,1.8401378e-01,7.5641465e-03,1.2000000e+01,0.0000000e+00,1.0935756e+02,5.7504306e+00,1.0000000e+01,6.0962510e-01
8.5999995e-02,7.5803604e+01,2.7741791e+02,9.6976547e+00,1.8622428e-01,7.7481605e-03,1.2000000e+01,0.0000000e+00,1.1096716e+02,5.8195086e+00,1.0000000e+01,6.0962510e-01
8.6999997e-02,7.5710045e+01,2.8143658e+02,9.9750729e+00,1.8843478e-01,7.9343850e-03,1.2000000e+01,0.0000000e+00,1.1257464e+02,5.8885865e+00,1.0000000e+01,6.0962510e-01
8.8000000e-02,7.5613190e+01,2.8544974e+02,1.0256510e+01,1.9064528e-01,8.1228195e-03,1.2000000e+01,0.0000000e+00,1.1417989e+02,5.9576645e+00,1.0000000e+01,6.0962510e-01
8.9000002e-02,7.5513206e+01,2.8945718e+02,1.0541960e+01,1.9285578e-01,8.3134649e-03,1.2000000e+01,0.0000000e+00,1.1578288e+02,6.0267425e+00,1.0000000e+01,6.0962510e-01
9.0000004e-02,7.5410255e+01,2.9345874e+02,1.0831417e+01,1.9506627e-01,8.5063204e-03,1.2000000e+01,0.0000000e+00,1.1738350e+02,6.0958209e+00,1.0000000e+01,6.0962510e-01
9.1000006e-02,7.5304489e+01,2.9745422e+02,1.1124876e+01,1.9727677e-01,8.7013869e-03,1.2000000e+01,0.0000000e+00,1.1898169e+02,6.1648989e+00,1.0000000e+01,6.0962510e-01
9.2000008e-02,7.5196053e+01,3.0144348e+02,1.1422330e+01,1.9948727e-01,8.8986633e-03,1.2000000e+01,0.0000000e+00,1.2057739e+02,6.2339768e+00,1.0000000e+01,6.0962510e-01
9.3000010e-02,7.5085075e+01,3.0542633e+02,1.1723773e+01,2.0169777e-01,9.0981508e-03,1.2000000e+01,0.0000000e+00,1.2217053e+02,6.3030548e+00,1.0000000e+01,6.0962510e-01
9.4000012e-02,7.4971695e+01,3.0940265e+02,1.2029200e+01,2.0390826e-01,9.2998482e-03,1.2000000e+01,0.0000000e+00,1.2376106e+02,6.3721328e+00,1.0000000e+01,6.0962510e-01
9.5000014e-02,7.4856033e+01,3.1337231e+02,1.2338602e+01,2.0611876e-01,9.5037566e-03,1.2000000e+01,0.0000000e+00,1.2534893e+02,6.4412112e+00,1.0000000e+01,6.0962510e-01
9.6000016e-02,7.4738213e+01,3.1733517e+02,1.2651975e+01,2.0832926e-01,9.7098751e-03,1.2000000e+01,0.0000000e+00,1.2693407e+02,6.5102892e+00,1.0000000e+01,6.0962510e-01
9.7000018e-02,7.4618347e+01,3.2129114e+02,1.2969310e+01,2.1053976e-01,9.9182045e-03,1.2000000e+01,0.0000000e+00,1.2851646e+02,6.5793672e+00,1.0000000e+01,6.0962510e-01
9.8000020e-02,7.4496544e+01,3.2524005e+02,1.3290601e+01,2.1275026e-01,1.0128744e-02,1.2000000e+01,0.0000000e+00,1.3009602e+02,6.6484451e+00,1.0000000e+01,6.0962510e-01
9.9000022e-02,7.4372917e+01,3.2918182e+02,1.3615841e+01,2.1496075e-01,1.0341494e-02,1.2000000e+01,0.0000000e+00,1.3167273e+02,6.7175231e+00,1.0000000e+01,6.0962510e-01
1.0000002e-01,7.4247559e+01,3.3311633e+02,1.3945023e+01,2.1717125e-01,1.0556455e-02,1.2000000e+01,0.0000000e+00,1.3324654e+02,6.7866011e+00,1.0000000e+01,6.0962510e-01
1.0100003e-01,7.4120560e+01,3.3704349e+02,1.4278139e+01,2.1938175e-01,1.0773626e-02,1.2000000e+01,0.0000000e+00,1.3481740e+02,6.8556795e+00,1.0000000e+01,6.0962510e-01
1.0200003e-01,7.3992020e+01,3.4096320e+02,1.4615183e+01,2.2159225e-01,1.0993008e-02,1.2000000e+01,0.0000000e+00,1.3638528e+02,6.9247575e+00,1.0000000e+01,6.0962510e-01
1.0300003e-01,7.3862015e+01,3.4487537e+02,1.4956146e+01,2.2380275e-01,1.1214600e-02,1.2000000e+01,0.0000000e+00,1.3795015e+02,6.9938354e+00,1.0000000e+01,6.0962510e-01
1.0400003e-01,7.3730637e+01,3.4877994e+02,1.5301022e+01,2.2601324e-01,1.1438402e-02,1.2000000e+01,0.0000000e+00,1.3951198e+02,7.0629134e+00,1.0000000e+01,6.0962510e-01
1.0500003e-01,7.3597961e+01,3.5267682e+02,1.5649801e+01,2.2822374e-01,1.1664416e-02,1.2000000e+01,0.0000000e+00,1.4107072e+02,7.1319914e+00,1.0000000e+01,6.0962510e-01
1.0600004e-01,7.3464066e+01,3.5656592e+02,1.6002478e+01,2.3043424e-01,1.1892639e-02,1.2000000e+01,0.0000000e+00,1.4262637e+02,7.2010698e+00,1.0000000e+01,6.0962510e-01
1.0700004e-01,7.3329025e+01,3.6044717e+02,1.6359043e+01,2.3264474e-01,1.2123073e-02,1.2000000e+01,0.0000000e+00,1.4417888e+02,7.2701478e+00,1.0000000e+01,6.0962510e-01
1.0800004e-01,7.3192902e+01,3.6432053e+02,1.6719490e+01,2.3485523e-01,1.2355718e-02,1.2000000e+01,0.0000000e+00,1.4572821e+02,7.3392258e+00,1.0000000e+01,6.0962510e-01
1.0900004e-01,7.3055771e+01,3.6818591e+02,1.7083811e+01,2.3706573e-01,1.2590573e-02,1.2000000e+01,0.0000000e+00,1.4727437e+02,7.4083037e+00,1.0000000e+01,6.0962510e-01
1.1000004e-01,7.2917686e+01,3.7204327e+02,1.7451996e+01,2.3927623e-01,1.2827639e-02,1.2000000e+01,0.0000000e+00,1.4881731e+02,7.4773817e+00,1.0000000e+01,6.0962510e-01
1.1100005e-01,7.2778709e+01,3.7589255e+02,1.7824039e+01,2.4148673e-01,1.3066915e-02,1.2000000e+01,0.0000000e+00,1.5035703e+02,7.5464597e+00,1.0000000e+01,6.0962510e-01
1.1200005e-01,7.2638901e+01,3.7973370e+02,1.8199932e+01,2.4369723e-01,1.3308401e-02,1.2000000e+01,0.0000000e+00,1.5189348e+02,7.6155381e+00,1.0000000e+01,6.0962510e-01
1.1300005e-01,7.2498314e+01,3.8356668e+02,1.8579666e+01,2.4590772e-01,1.3552099e-02,1.2000000e+01,0.0000000e+00,1.5342668e+02,7.6846161e+00,1.0000000e+01,6.0962510e-01
1.1400005e-01,7.2357002e+01,3.8739142e+02,1.8963232e+01,2.4811822e-01,1.3798006e-02,1.2000000e+01,0.0000000e+00,1.5495657e+02,7.7536941e+00,1.0000000e+01,6.0962510e-01
1.1500005e-01,7.2215012e+01,3.9120792e+02,1.9350624e+01,2.5032872e-01,1.4046124e-02,1.2000000e+01,0.0000000e+00,1.5648317e+02,7.8227720e+00,1.0000000e+01,6.0962510e-01
1.1600006e-01,7.2072395e+01,3.9501611e+02,1.9741833e+01,2.5253922e-01,1.4296453e-02,1.2000000e+01,0.0000000e+00,1.5800645e+02,7.8918500e+00,1.0000000e+01,6.0962510e-01
1.1700006e-01,7.1929199e+01,3.9881595e+02,2.0136848e+01,2.5474972e-01,1.4548992e-02,1.2000000e+01,0.0000000e+00,1.5952638e+02,7.9609284e+00,1.0000000e+01,6.0962510e-01
